time,angle
4.40,-59.72
4.43,-59.14
4.47,-56.51
4.50,-51.98
5.40,-43.49
5.43,-49.53
5.47,-54.45
5.50,-57.56
5.53,-58.88
5.57,-58.20
5.60,-55.62
5.63,-51.15
5.67,-45.23
5.70,-37.69
5.73,-28.57
5.77,-18.47
5.80,-7.57
5.83,3.64
5.87,14.35
5.90,24.76
5.93,33.88
5.97,42.09
6.00,48.82
6.03,53.79
6.07,56.95
6.10,58.13
6.13,57.38
6.17,54.63
6.20,49.88
6.23,43.24
6.30,27.40
6.33,17.03
6.37,6.08
6.40,-5.38
6.43,-16.32
6.47,-26.53
6.50,-35.86
6.53,-43.49
6.57,-49.59
6.60,-54.08
6.63,-57.02
6.67,-58.13
6.70,-57.22
6.73,-54.40
6.77,-49.90
6.80,-43.90
6.83,-36.13
6.87,-26.85
6.90,-16.73
6.93,-6.01
6.97,5.23
7.00,15.69
7.03,25.95
7.07,34.74
7.10,42.63
7.13,48.96
7.17,53.61
7.20,56.38
7.23,57.32
7.27,56.24
7.30,53.12
7.33,48.09
7.37,41.23
7.43,25.15
7.47,14.78
7.50,3.96
7.53,-7.14
7.57,-17.85
7.60,-27.89
7.63,-36.76
7.67,-44.13
7.70,-49.84
7.73,-54.03
7.77,-56.64
7.80,-57.27
7.83,-56.08
7.87,-52.93
7.90,-48.22
7.93,-41.90
7.97,-33.89
8.00,-24.63
8.03,-14.51
8.07,-3.80
8.10,7.16
8.13,17.53
8.17,27.20
8.20,35.80
8.23,43.22
8.27,49.12
8.30,53.33
8.33,55.71
8.37,56.10
8.40,54.54
8.43,51.10
8.47,45.68
8.50,38.52
8.53,29.70
8.57,22.10
8.60,11.78
8.63,0.78
8.67,-9.97
8.70,-20.54
8.73,-30.13
8.77,-38.42
8.80,-45.31
8.83,-50.55
8.87,-54.17
8.90,-56.20
8.93,-56.38
8.97,-54.66
9.00,-51.08
9.03,-45.97
9.07,-39.28
9.10,-30.99
9.13,-21.47
9.17,-11.41
9.20,-0.52
9.23,9.96
9.27,20.16
9.30,29.34
9.33,37.62
9.37,44.58
9.40,49.91
9.43,53.51
9.47,55.23
9.50,55.07
9.53,52.99
9.57,48.97
9.60,43.08
9.63,35.48
9.67,26.71
9.70,18.75
9.73,8.34
9.77,-2.26
9.80,-13.04
9.83,-23.04
9.87,-32.26
9.90,-40.11
9.93,-46.25
9.97,-50.93
10.00,-54.04
10.03,-55.53
10.07,-55.09
10.10,-52.75
10.13,-48.64
10.17,-43.08
10.20,-35.92
10.23,-27.31
10.27,-17.60
10.30,-7.24
10.33,3.38
10.37,13.70
10.40,23.53
10.43,32.18
10.47,39.91
10.50,46.24
10.53,50.91
10.57,53.79
10.60,54.80
10.63,53.90
10.67,51.14
10.70,46.43
10.73,40.03
10.83,14.73
10.87,4.21
10.90,-7.76
10.93,-17.11
10.97,-26.61
11.00,-35.10
11.03,-42.33
11.07,-47.82
11.10,-51.85
11.13,-54.34
11.17,-54.97
11.20,-53.74
11.23,-50.76
11.27,-46.04
11.30,-39.83
11.33,-32.07
11.37,-23.07
11.40,-13.06
11.43,-2.56
11.47,7.93
11.50,17.77
11.53,26.92
11.57,35.19
11.60,42.29
11.63,47.79
11.67,51.72
11.70,53.81
11.73,54.01
11.77,52.30
11.80,48.68
11.83,43.28
11.87,36.26
11.90,27.84
11.93,19.90
11.97,8.51
12.00,-1.57
12.03,-11.94
12.07,-21.42
12.10,-30.29
12.13,-38.09
12.17,-44.51
12.20,-49.19
12.23,-52.46
12.27,-54.08
12.30,-53.83
12.33,-51.73
12.37,-47.89
12.40,-42.61
12.43,-35.69
12.47,-27.45
12.50,-18.07
12.53,-7.89
12.57,2.39
12.60,12.82
12.63,22.30
12.67,30.58
12.70,38.33
12.73,44.61
12.77,49.25
12.80,52.16
12.83,53.36
12.87,52.60
12.90,50.03
12.93,45.53
12.97,39.33
13.00,31.69
13.03,23.08
13.07,13.12
13.10,4.46
13.13,-7.09
13.17,-16.88
13.20,-25.87
13.23,-33.78
13.27,-41.00
13.30,-46.48
13.33,-50.44
13.37,-52.77
13.40,-53.43
13.43,-52.22
13.47,-49.25
13.50,-44.66
13.53,-38.65
13.57,-31.00
13.60,-22.15
13.63,-12.55
13.67,-2.43
13.70,7.67
13.73,17.44
13.77,26.21
13.80,34.23
13.83,41.22
13.87,46.53
13.90,50.26
13.93,52.20
13.97,52.24
14.00,50.50
14.03,46.85
14.07,41.49
14.10,34.57
14.13,26.30
14.17,17.33
14.20,7.57
14.23,-2.59
14.27,-12.48
14.30,-21.64
14.33,-30.44
14.37,-37.70
14.40,-43.80
14.43,-48.22
14.47,-51.22
14.50,-52.67
14.53,-52.21
14.57,-49.99
14.60,-46.13
14.63,-40.76
14.67,-33.81
14.70,-25.60
14.73,-16.39
14.77,-6.55
14.80,3.71
14.83,13.54
14.87,22.67
14.90,30.80
14.93,38.06
14.97,43.99
15.00,48.30
15.03,50.95
15.07,51.80
15.10,50.78
15.13,47.85
15.17,43.22
15.20,36.94
15.23,29.32
15.27,20.84
15.30,11.23
15.33,1.43
15.37,-8.71
15.40,-18.15
15.43,-26.71
15.47,-34.53
15.50,-41.09
15.53,-46.21
15.57,-49.68
15.60,-51.65
15.63,-51.90
15.67,-50.30
15.70,-47.12
15.73,-42.37
15.77,-36.03
15.80,-28.32
15.83,-19.34
15.87,-9.90
15.90,0.17
15.93,10.10
15.97,19.40
16.00,27.71
16.03,35.22
16.07,41.65
16.10,46.52
16.13,49.74
16.17,51.20
16.20,50.77
16.23,48.58
16.27,44.52
16.30,38.82
16.33,31.71
16.37,23.50
16.40,14.02
16.43,4.54
16.47,-5.63
16.50,-15.11
16.53,-23.83
16.57,-31.96
16.60,-38.82
16.63,-44.28
16.67,-48.34
16.70,-50.82
16.73,-51.60
16.77,-50.63
16.80,-47.84
16.83,-43.47
16.87,-37.67
16.90,-30.40
16.93,-21.86
16.97,-12.54
17.00,-2.54
17.03,7.19
17.07,16.38
17.10,25.26
17.13,32.78
17.17,39.54
17.20,44.77
17.23,48.41
17.27,50.35
17.30,50.50
17.33,48.83
17.37,45.32
17.40,40.10
17.43,33.41
17.47,25.64
17.50,16.78
17.53,7.15
17.57,-2.40
17.60,-11.92
17.63,-21.29
17.67,-29.63
17.70,-36.77
17.73,-42.65
17.77,-46.80
17.80,-49.73
17.83,-51.03
17.87,-50.48
17.90,-48.21
17.93,-44.25
17.97,-39.00
18.00,-32.09
18.03,-23.97
18.07,-14.98
18.10,-5.37
18.13,4.70
18.17,13.96
18.20,22.82
18.23,30.45
18.27,37.48
18.30,43.01
18.33,47.05
18.37,49.39
18.40,49.98
18.43,48.73
18.47,45.69
18.50,40.92
18.53,34.60
18.57,27.08
18.60,18.49
18.63,9.14
18.67,-0.35
18.70,-10.11
18.73,-19.14
18.77,-27.50
18.80,-34.75
18.83,-40.87
18.87,-45.57
18.90,-48.57
18.93,-50.17
18.97,-50.05
19.00,-48.12
19.03,-44.57
19.07,-39.65
19.10,-33.21
19.13,-25.40
19.17,-16.53
19.20,-7.23
19.23,2.74
19.27,12.23
19.30,20.70
19.33,28.49
19.37,35.64
19.40,41.48
19.43,45.75
19.47,48.39
19.50,49.31
19.53,48.41
19.57,45.76
19.60,41.36
19.63,35.40
19.67,28.09
19.70,19.89
19.73,10.86
19.77,1.29
19.80,-8.23
19.83,-17.34
19.87,-25.66
19.90,-33.19
19.93,-39.32
19.97,-44.14
20.00,-47.53
20.03,-49.44
20.07,-49.53
20.10,-48.01
20.13,-44.73
20.17,-40.07
20.20,-33.88
20.23,-26.41
20.27,-17.85
20.30,-8.59
20.33,1.12
20.37,10.61
20.40,19.34
20.43,27.32
20.47,34.29
20.50,40.19
20.53,44.74
20.57,47.59
20.60,48.75
20.63,48.09
20.67,45.76
20.70,41.66
20.73,35.98
20.77,28.90
20.80,20.95
20.83,12.05
20.87,2.72
20.90,-7.00
20.93,-16.07
20.97,-24.50
21.00,-31.96
21.03,-38.37
21.07,-43.25
21.10,-46.73
21.13,-48.81
21.17,-49.11
21.20,-47.87
21.23,-44.79
21.27,-40.35
21.30,-34.55
21.33,-27.20
21.37,-18.82
21.40,-9.65
21.43,-0.06
21.47,9.24
21.50,18.11
21.53,25.95
21.57,33.00
21.60,39.02
21.63,43.63
21.67,46.66
21.70,48.01
21.73,47.64
21.77,45.48
21.80,41.62
21.83,36.16
21.87,29.35
21.90,21.65
21.93,12.80
21.97,3.67
22.00,-6.02
22.03,-14.90
22.07,-23.42
22.10,-30.88
22.13,-37.36
22.17,-42.36
22.20,-46.02
22.23,-48.09
22.27,-48.67
22.30,-47.45
22.33,-44.61
22.37,-40.28
22.40,-34.62
22.43,-27.50
22.47,-19.11
22.50,-10.30
22.53,-0.88
22.57,8.62
22.60,17.28
22.63,25.38
22.67,32.20
22.70,38.26
22.73,42.95
22.77,46.08
22.80,47.50
22.83,47.20
22.87,45.14
22.90,41.44
22.93,36.13
22.97,29.43
23.00,21.86
23.03,13.16
23.07,4.05
23.10,-5.35
23.13,-14.42
23.17,-22.82
23.20,-30.40
23.23,-36.77
23.27,-41.88
23.30,-45.49
23.33,-47.62
23.37,-48.21
23.40,-47.18
23.43,-44.45
23.47,-40.26
23.50,-34.60
23.53,-27.64
23.57,-19.36
23.60,-10.57
23.63,-1.18
23.67,8.04
23.70,16.85
23.73,24.66
23.77,31.58
23.80,37.60
23.83,42.29
23.87,45.39
23.90,46.94
23.93,46.65
23.97,44.72
24.00,41.06
24.03,35.87
24.07,29.29
24.10,21.75
24.13,13.26
24.17,4.24
24.20,-5.06
24.23,-14.04
24.27,-22.50
24.30,-29.89
24.33,-36.24
24.37,-41.31
24.40,-44.92
24.43,-47.01
24.47,-47.65
24.50,-46.57
24.53,-43.93
24.57,-39.73
24.60,-34.17
24.63,-27.25
24.67,-19.26
24.70,-10.48
24.73,-1.18
24.77,8.08
24.80,16.63
24.83,24.31
24.87,31.04
24.90,37.12
24.93,41.78
24.97,44.80
25.00,46.30
25.03,46.04
25.07,44.08
25.10,40.46
25.13,35.34
25.17,28.82
25.20,21.38
25.23,12.97
25.27,3.97
25.30,-5.23
25.33,-14.12
25.37,-22.24
25.40,-29.72
25.43,-35.88
25.47,-40.88
25.50,-44.32
25.53,-46.53
25.57,-47.07
25.60,-45.96
25.63,-43.26
25.67,-39.12
25.70,-33.61
25.73,-26.65
25.77,-18.61
25.80,-9.86
25.83,-0.74
25.87,8.38
25.90,16.95
25.93,24.53
25.97,30.98
26.00,36.92
26.03,41.48
26.07,44.49
26.10,45.87
26.13,45.59
26.17,43.59
26.20,39.91
26.23,34.75
26.27,28.22
26.30,20.84
26.33,12.38
26.37,3.47
26.40,-5.60
26.43,-14.37
26.47,-22.60
26.50,-29.83
26.53,-35.88
26.57,-40.71
26.60,-44.19
26.63,-46.08
26.67,-46.50
26.70,-45.27
26.73,-42.42
26.77,-38.22
26.80,-32.72
26.83,-25.72
26.87,-17.74
26.90,-9.05
26.93,0.02
26.97,8.99
27.00,17.31
27.03,24.74
27.07,31.19
27.10,36.95
27.13,41.28
27.17,44.15
27.20,45.41
27.23,44.99
27.27,42.85
27.30,39.09
27.33,33.86
27.37,27.43
27.40,19.88
27.43,11.61
27.47,2.90
27.50,-6.34
27.53,-14.85
27.57,-22.97
27.60,-30.11
27.63,-36.13
27.67,-40.75
27.70,-43.99
27.73,-45.77
27.77,-45.98
27.80,-44.64
27.83,-41.72
27.87,-37.52
27.90,-31.92
27.93,-24.86
27.97,-16.95
28.00,-8.23
28.03,0.69
28.07,9.55
28.10,17.91
28.13,25.19
28.17,31.59
28.20,37.09
28.23,41.25
28.27,43.88
28.30,44.94
28.33,44.29
28.37,41.93
28.40,38.06
28.43,32.80
28.47,26.25
28.50,18.69
28.53,10.30
28.57,1.64
28.60,-7.17
28.63,-15.73
28.67,-23.58
28.70,-30.52
28.73,-36.14
28.77,-40.59
28.80,-43.64
28.83,-45.29
28.87,-45.37
28.90,-43.74
28.93,-40.72
28.97,-36.36
29.00,-30.58
29.03,-23.46
29.07,-15.42
29.10,-6.80
29.13,2.05
29.17,10.81
29.20,18.82
29.23,25.72
29.27,32.00
29.30,37.31
29.33,41.24
29.37,43.58
29.40,44.41
29.43,43.51
29.47,41.08
29.50,36.94
29.53,31.44
29.57,24.90
29.60,17.27
29.63,8.92
29.67,0.19
29.70,-8.50
29.73,-16.88
29.77,-24.51
29.80,-31.14
29.83,-36.66
29.87,-40.81
29.90,-43.54
29.93,-44.88
29.97,-44.65
30.00,-42.83
30.03,-39.57
30.07,-34.94
30.10,-29.12
30.13,-21.81
30.17,-13.78
30.20,-5.25
30.23,3.60
30.27,12.08
30.30,19.94
30.33,26.55
30.37,32.69
30.40,37.61
30.43,41.25
30.47,43.36
30.50,43.86
30.53,42.72
30.57,39.96
30.60,35.62
30.63,29.93
30.67,23.33
30.70,15.65
30.73,7.38
30.77,-1.27
30.80,-9.93
30.83,-18.01
30.87,-25.44
30.90,-31.88
30.93,-37.08
30.97,-40.88
31.00,-43.33
31.03,-44.40
31.07,-43.88
31.10,-41.77
31.13,-38.25
31.17,-33.57
31.20,-27.34
31.23,-20.09
31.27,-11.88
31.30,-3.43
31.33,5.27
31.37,13.50
31.40,21.09
31.43,27.55
31.47,33.39
31.50,38.07
31.53,41.35
31.57,43.13
31.60,43.31
31.63,41.80
31.67,38.67
31.70,34.11
31.73,28.32
31.77,21.58
31.80,13.85
31.83,5.51
31.87,-3.06
31.90,-11.59
31.93,-19.45
31.97,-26.65
32.00,-32.93
32.03,-37.61
32.07,-41.14
32.10,-43.31
32.13,-43.94
32.17,-43.10
32.20,-40.72
32.23,-36.98
32.27,-32.00
32.30,-25.61
32.33,-18.10
32.37,-9.96
32.40,-1.44
32.43,7.01
32.47,15.09
32.50,22.37
32.53,28.59
32.57,34.23
32.60,38.64
32.63,41.57
32.67,42.89
32.70,42.66
32.73,40.82
32.77,37.46
32.80,32.59
32.83,26.67
32.87,19.61
32.90,11.76
32.93,3.43
32.97,-5.16
33.00,-13.46
33.03,-21.24
33.07,-28.14
33.10,-33.84
33.13,-38.35
33.17,-41.47
33.20,-43.30
33.23,-43.61
33.27,-42.38
33.30,-39.61
33.33,-35.56
33.37,-30.31
33.40,-23.58
33.43,-16.01
33.47,-7.81
33.50,0.77
33.53,9.16
33.57,16.99
33.60,24.02
33.63,29.96
33.67,35.20
33.70,39.13
33.73,41.65
33.77,42.59
33.80,41.93
33.83,39.69
33.87,35.92
33.90,30.74
33.93,24.69
33.97,17.48
34.00,9.55
34.03,1.07
34.06,-7.25
34.10,-15.36
34.13,-22.87
34.16,-29.48
34.20,-34.95
34.23,-38.95
34.26,-41.66
34.30,-43.05
34.33,-42.92
34.36,-41.28
34.40,-38.08
34.43,-33.83
34.46,-28.19
34.50,-21.37
34.53,-13.54
34.56,-5.38
34.60,3.16
34.63,11.29
34.66,18.89
34.70,25.49
34.73,31.28
34.76,36.14
34.80,39.63
34.83,41.63
34.86,42.10
34.90,41.01
34.93,38.33
34.96,34.17
35.00,28.72
35.03,22.35
35.06,15.07
35.10,7.04
35.13,-1.23
35.16,-9.57
35.20,-17.44
35.23,-24.64
35.26,-30.76
35.30,-35.75
35.33,-39.26
35.36,-41.64
35.40,-42.61
35.43,-42.01
35.46,-39.92
35.50,-36.39
35.53,-31.73
35.56,-25.81
35.60,-18.64
35.63,-10.89
35.66,-2.59
35.70,5.68
35.73,13.60
35.76,20.87
35.80,27.07
35.83,32.60
35.86,36.97
35.90,39.96
35.93,41.54
35.96,41.50
36.00,39.86
36.03,36.70
36.06,32.21
36.10,26.46
36.13,19.85
36.16,12.35
36.20,4.26
36.23,-4.04
36.26,-12.18
36.30,-19.81
36.33,-26.60
36.36,-32.39
36.40,-36.76
36.43,-40.02
36.46,-41.91
36.50,-42.31
36.53,-41.26
36.56,-38.71
36.60,-34.91
36.63,-29.78
36.66,-23.55
36.70,-16.30
36.73,-8.35
36.76,-0.16
36.80,8.02
36.83,15.72
36.86,22.71
36.90,28.57
36.93,33.76
36.96,37.68
37.00,40.18
37.03,41.21
37.06,40.64
37.10,38.51
37.13,34.88
37.16,29.90
37.20,24.00
37.23,17.19
37.26,9.48
37.30,1.43
37.33,-6.81
37.36,-14.67
37.40,-21.94
37.43,-28.35
37.46,-33.67
37.50,-37.60
37.53,-40.29
37.56,-41.64
37.60,-41.57
37.63,-39.95
37.66,-36.91
37.70,-32.78
37.73,-27.30
37.76,-20.69
37.80,-13.27
37.83,-5.28
37.86,2.92
37.90,10.80
37.93,18.25
37.96,24.77
38.00,30.21
38.03,34.93
38.06,38.30
38.10,40.25
38.13,40.68
38.16,39.51
38.20,36.91
38.23,32.83
38.26,27.56
38.30,21.35
38.33,14.28
38.36,6.49
38.40,-1.53
38.43,-9.54
38.46,-17.28
38.50,-24.31
38.53,-30.29
38.56,-35.12
38.60,-38.43
38.63,-40.56
38.66,-41.37
38.70,-40.76
38.73,-38.58
38.76,-35.12
38.80,-30.50
38.83,-24.67
38.86,-17.80
38.90,-10.21
38.93,-2.13
38.96,5.99
39.00,13.58
39.03,20.52
39.06,26.63
39.10,31.89
39.13,36.05
39.16,38.85
39.20,40.19
39.23,40.01
39.26,38.28
39.30,35.02
39.33,30.46
39.36,24.90
39.40,18.39
39.43,11.09
39.46,3.25
39.50,-4.85
39.53,-12.70
39.56,-20.01
39.60,-26.54
39.63,-32.01
39.66,-36.20
39.70,-39.01
39.73,-40.67
39.76,-40.83
39.80,-39.56
39.83,-36.91
39.86,-33.05
39.90,-28.01
39.93,-21.82
39.96,-14.64
40.00,-6.94
40.03,1.10
40.06,8.93
40.10,16.34
40.13,22.92
40.16,28.52
40.20,33.38
40.23,36.98
40.26,39.15
40.30,39.91
40.33,39.10
40.36,36.77
40.40,33.02
40.43,27.95
40.46,22.01
40.50,15.36
40.53,7.79
40.56,-0.09
40.60,-8.10
40.63,-15.69
40.66,-22.65
40.70,-28.74
40.73,-33.66
40.76,-37.24
40.80,-39.55
40.83,-40.56
40.86,-40.23
40.90,-38.33
40.93,-35.12
40.96,-30.97
41.00,-25.37
41.03,-18.75
41.06,-11.42
41.10,-3.52
41.13,4.42
41.16,12.03
41.20,18.99
41.23,25.30
41.26,30.46
41.30,34.75
41.33,37.75
41.36,39.29
41.40,39.34
41.43,37.87
41.46,34.90
41.50,30.59
41.53,25.17
41.56,18.94
41.60,11.88
41.63,4.23
41.66,-3.71
41.70,-11.59
41.73,-18.86
41.76,-25.36
41.80,-31.02
41.83,-35.37
41.86,-38.04
41.90,-39.92
41.93,-40.31
41.96,-39.30
42.00,-36.83
42.03,-33.17
42.06,-28.39
42.10,-22.36
42.13,-15.42
42.16,-7.89
42.20,-0.03
42.23,7.77
42.26,15.05
42.30,21.75
42.33,27.47
42.36,32.26
42.40,35.96
42.43,38.26
42.46,39.10
42.50,38.47
42.53,36.35
42.56,32.79
42.60,27.96
42.63,22.17
42.66,15.57
42.70,8.26
42.73,0.54
42.76,-7.27
42.80,-14.78
42.83,-21.73
42.86,-27.62
42.90,-32.67
42.93,-36.26
42.96,-38.71
43.00,-39.84
43.03,-39.64
43.06,-37.92
43.10,-34.89
43.13,-30.76
43.16,-25.41
43.20,-18.97
43.23,-11.75
43.26,-4.10
43.30,3.67
43.33,11.12
43.36,18.08
43.40,24.29
43.43,29.47
43.46,33.80
43.50,36.87
43.53,38.45
43.56,38.61
43.60,37.27
43.63,34.40
43.66,30.22
43.70,25.06
43.73,19.00
43.76,12.04
43.80,4.59
43.83,-3.15
43.86,-10.82
43.90,-17.99
43.93,-24.46
43.96,-30.06
44.00,-34.36
44.03,-37.18
44.06,-39.01
44.10,-39.52
44.13,-38.52
44.16,-36.09
44.20,-32.53
44.23,-27.96
44.26,-22.14
44.30,-15.31
44.33,-7.88
44.36,-0.22
44.40,7.43
44.43,14.60
44.46,21.20
44.50,26.82
44.53,31.63
44.56,35.23
44.60,37.55
44.63,38.44
44.66,37.86
44.70,35.77
44.73,32.30
44.76,27.58
44.80,22.03
44.83,15.55
44.86,8.44
44.90,0.76
44.93,-6.92
44.96,-14.25
45.00,-21.11
45.03,-27.08
45.06,-31.89
45.10,-35.38
45.13,-37.82
45.16,-38.99
45.20,-38.71
45.23,-36.97
45.26,-34.09
45.30,-29.88
45.33,-24.76
45.36,-18.48
45.40,-11.39
45.43,-3.92
45.46,3.73
45.50,11.07
45.53,18.00
45.56,23.96
45.60,29.07
45.63,33.29
45.66,36.23
45.70,37.76
45.73,37.92
45.76,36.55
45.80,33.77
45.83,29.60
45.86,24.52
45.90,18.38
45.93,11.82
45.96,4.47
46.00,-3.15
46.03,-10.78
46.06,-17.69
46.10,-24.12
46.13,-29.58
46.16,-33.33
46.20,-36.33
46.23,-38.15
46.26,-38.58
46.30,-37.57
46.33,-35.14
46.36,-31.54
46.40,-27.01
46.43,-21.21
46.46,-14.60
46.50,-7.29
46.53,0.24
46.56,7.69
46.60,14.72
46.63,21.07
46.66,26.61
46.70,31.21
46.73,34.73
46.76,36.93
46.80,37.73
46.83,37.08
46.86,34.93
46.90,31.47
46.93,26.74
46.96,21.13
47.00,14.82
47.03,7.83
47.06,0.39
47.10,-7.13
47.13,-14.43
47.16,-21.06
47.20,-26.95
47.23,-31.59
47.26,-34.93
47.30,-37.26
47.33,-38.30
47.36,-37.99
47.40,-36.17
47.43,-33.22
47.46,-29.08
47.50,-23.95
47.53,-17.63
47.56,-10.71
47.60,-3.24
47.63,4.31
47.66,11.45
47.70,18.13
47.73,24.06
47.76,28.98
47.80,33.00
47.83,35.77
47.86,37.19
47.90,37.15
47.93,35.64
47.96,32.82
48.00,28.60
48.03,23.53
48.06,17.47
48.10,10.78
48.13,3.53
48.16,-3.87
48.20,-11.29
48.23,-18.14
48.26,-24.40
48.30,-29.73
48.33,-33.76
48.36,-36.31
48.40,-37.81
48.43,-38.03
48.46,-36.89
48.50,-34.42
48.53,-30.84
48.56,-26.24
48.60,-20.31
48.63,-13.72
48.66,-6.45
48.70,1.03
48.73,8.38
48.76,15.21
48.80,21.45
48.83,26.74
48.86,31.17
48.90,34.49
48.93,36.45
48.96,37.02
49.00,36.20
49.03,33.91
49.06,30.29
49.10,25.55
49.13,19.86
49.16,13.65
49.20,6.60
49.23,-0.77
49.26,-8.21
49.30,-15.15
49.33,-21.60
49.36,-27.25
49.40,-31.82
49.43,-34.74
49.46,-36.80
49.50,-37.61
49.53,-37.13
49.56,-35.13
49.60,-31.94
49.63,-27.95
49.66,-22.65
49.70,-16.29
49.73,-9.30
49.76,-1.95
49.80,5.42
49.83,12.43
49.86,18.85
49.90,24.52
49.93,29.21
49.96,32.97
50.00,35.48
50.03,36.63
50.06,36.38
50.10,34.68
50.13,31.59
50.16,27.37
50.20,22.14
50.23,15.98
50.26,9.38
50.30,2.27
50.33,-5.06
50.36,-12.24
50.40,-18.86
50.43,-24.77
50.46,-29.73
50.50,-33.12
50.53,-35.64
50.56,-36.96
50.60,-36.99
50.63,-35.59
50.66,-32.96
50.70,-29.21
50.73,-24.45
50.76,-18.59
50.80,-11.89
50.83,-4.75
50.86,2.53
50.90,9.65
50.93,16.25
50.96,22.26
51.00,27.28
51.03,31.41
51.06,34.32
51.10,36.02
51.13,36.29
51.16,35.16
51.20,32.67
51.23,28.85
51.26,24.07
51.30,18.23
51.33,12.06
51.36,5.04
51.40,-2.16
51.43,-9.48
51.46,-16.30
51.50,-22.45
51.53,-27.77
51.56,-31.60
51.60,-34.55
51.63,-36.38
51.66,-36.90
51.70,-36.05
51.73,-33.94
51.76,-30.61
51.80,-26.26
51.83,-20.85
51.86,-14.48
51.90,-7.54
51.93,-0.30
51.96,6.96
52.00,13.68
52.03,19.85
52.06,25.30
52.10,29.67
52.13,33.15
52.16,35.22
52.20,36.06
52.23,35.45
52.26,33.46
52.30,30.14
52.33,25.68
52.36,20.27
52.40,14.14
52.43,7.52
52.46,0.40
52.50,-6.80
52.53,-13.79
52.56,-20.08
52.60,-25.80
52.63,-30.37
52.66,-33.41
52.70,-35.65
52.73,-36.62
52.76,-36.26
52.80,-34.57
52.83,-31.61
52.86,-27.70
52.90,-22.72
52.93,-16.80
52.96,-10.04
53.00,-2.97
53.03,4.26
53.06,11.17
53.10,17.53
53.13,23.20
53.16,27.97
53.20,31.73
53.23,34.26
53.26,35.51
53.30,35.41
53.33,33.95
53.36,31.16
53.40,27.11
53.43,22.17
53.46,16.29
53.50,9.91
53.53,3.02
53.56,-4.10
53.60,-11.24
53.63,-17.64
53.66,-23.60
53.70,-28.69
53.73,-31.79
53.76,-34.46
53.80,-35.91
53.83,-36.01
53.86,-34.81
53.90,-32.27
53.93,-28.75
53.96,-24.23
54.00,-18.54
54.03,-12.13
54.06,-5.22
54.10,1.92
54.13,8.91
54.16,15.38
54.20,21.23
54.23,26.22
54.26,30.29
54.30,33.29
54.33,34.99
54.36,35.37
54.40,34.32
54.43,31.94
54.46,28.28
54.50,23.71
54.53,18.04
54.56,11.99
54.60,5.34
54.63,-1.68
54.66,-8.77
54.70,-15.59
54.73,-21.53
54.76,-26.78
54.80,-30.68
54.83,-33.56
54.86,-35.46
54.90,-35.99
54.93,-35.24
54.96,-33.16
55.00,-30.03
55.03,-25.87
55.06,-20.66
55.10,-14.33
55.13,-7.63
55.16,-0.57
55.20,6.48
55.23,13.12
55.26,19.16
55.30,24.50
55.33,28.81
55.36,32.19
55.40,34.32
55.43,35.11
55.46,34.55
55.50,32.62
55.53,29.42
55.56,25.19
55.60,19.95
55.63,14.02
55.66,7.58
55.70,0.53
55.73,-6.48
55.76,-13.24
55.80,-19.43
55.83,-25.04
55.86,-29.66
55.90,-32.26
55.93,-34.55
55.96,-35.49
56.00,-35.14
56.03,-33.51
56.06,-30.56
56.10,-26.72
56.13,-21.93
56.16,-16.15
56.20,-9.57
56.23,-2.62
56.26,4.27
56.30,11.02
56.33,17.22
56.36,22.81
56.40,27.40
56.43,31.03
56.46,33.58
56.50,34.71
56.53,34.54
56.56,33.09
56.60,30.23
56.63,26.27
56.66,21.35
56.70,15.56
56.73,9.32
56.76,2.70
56.80,-4.25
56.83,-11.14
56.86,-17.45
56.90,-23.29
56.93,-28.11
56.96,-31.08
57.00,-33.63
57.03,-34.98
57.06,-35.06
57.10,-33.77
57.13,-31.22
57.16,-27.85
57.20,-23.28
57.23,-17.76
57.26,-11.46
57.30,-4.67
57.33,2.29
57.36,9.09
57.40,15.38
57.43,21.07
57.46,25.99
57.50,29.92
57.53,32.69
57.56,34.29
57.60,34.49
57.63,33.46
57.66,31.04
57.70,27.48
57.73,22.84
57.76,17.26
57.80,11.21
57.83,4.81
57.86,-2.03
57.90,-9.01
57.93,-15.50
57.96,-21.26
58.00,-26.51
58.03,-30.53
58.06,-32.67
58.10,-34.31
58.13,-34.73
58.16,-33.89
58.20,-31.75
58.23,-28.53
58.26,-24.42
58.30,-19.30
58.33,-13.18
58.36,-6.61
58.40,0.31
58.43,7.04
58.46,13.48
58.50,19.30
58.53,24.49
58.56,28.58
58.60,31.71
58.63,33.60
58.66,34.24
58.70,33.54
58.73,31.48
58.76,28.22
58.80,23.96
58.83,18.61
58.86,12.78
58.90,6.53
58.93,-0.24
58.96,-7.04
59.00,-13.72
59.03,-19.77
59.06,-24.91
59.10,-28.77
59.13,-31.74
59.16,-33.75
59.20,-34.53
59.23,-34.03
59.26,-32.24
59.30,-29.26
59.33,-25.41
59.36,-20.60
59.40,-14.78
59.43,-8.35
59.46,-1.54
59.50,5.24
59.53,11.77
59.56,17.74
59.60,22.98
59.63,27.37
