time,angle
4.93,55.28
4.97,53.07
5.00,48.05
5.03,40.68
5.07,32.56
5.10,21.65
5.13,10.07
5.17,-2.21
5.20,-13.57
5.23,-24.49
5.27,-34.01
5.30,-41.91
5.33,-48.05
5.37,-51.70
5.40,-52.76
5.43,-51.69
5.47,-48.02
5.50,-41.81
5.53,-33.73
5.57,-23.90
5.60,-12.82
5.63,-1.16
5.67,10.68
5.70,21.92
5.73,32.06
5.77,40.54
5.80,47.47
5.83,52.12
5.87,54.45
5.90,54.65
5.93,52.23
5.97,47.42
6.00,40.49
6.03,31.66
6.07,21.51
6.10,10.32
6.13,-1.50
6.17,-12.92
6.20,-23.58
6.23,-32.90
6.27,-40.77
6.30,-46.88
6.33,-50.67
6.37,-52.15
6.40,-51.03
6.43,-47.58
6.47,-41.71
6.50,-33.92
6.53,-24.34
6.57,-13.59
6.60,-2.08
6.63,9.71
6.67,20.84
6.70,30.84
6.73,39.48
6.77,46.37
6.80,51.19
6.83,53.88
6.87,54.10
6.90,51.86
6.93,47.28
6.97,40.37
7.00,31.71
7.03,21.61
7.07,10.53
7.10,-1.14
7.13,-12.49
7.17,-23.03
7.20,-32.36
7.23,-40.39
7.27,-46.34
7.30,-50.09
7.33,-51.51
7.37,-50.64
7.40,-47.21
7.43,-41.50
7.47,-33.74
7.50,-24.36
7.53,-13.69
7.57,-2.26
7.60,9.33
7.63,20.53
7.67,30.33
7.70,38.75
7.73,45.50
7.77,50.25
7.80,52.85
7.83,53.12
7.87,50.96
7.90,46.33
7.93,39.60
7.97,30.97
8.00,21.16
8.03,10.12
8.07,-1.43
8.10,-12.52
8.13,-22.77
8.17,-32.09
8.20,-39.86
8.23,-45.72
8.27,-49.38
8.30,-50.62
8.33,-49.63
8.37,-46.22
8.40,-40.52
8.43,-32.78
8.47,-23.33
8.50,-12.87
8.53,-1.38
8.57,10.03
8.60,20.96
8.63,30.56
8.67,38.71
8.70,45.27
8.73,49.93
8.77,52.36
8.80,52.50
8.83,50.19
8.87,45.58
8.90,38.78
8.93,30.16
8.97,20.29
9.00,9.35
9.03,-2.02
9.07,-12.86
9.10,-23.02
9.13,-32.08
9.17,-39.69
9.20,-45.30
9.23,-48.75
9.27,-49.86
9.30,-48.61
9.33,-44.98
9.37,-39.10
9.40,-31.21
9.43,-21.85
9.47,-11.31
9.50,-0.19
9.53,11.22
9.57,21.94
9.60,31.23
9.63,39.16
9.67,45.48
9.70,49.82
9.73,52.02
9.77,51.70
9.80,49.23
9.83,44.46
9.87,37.58
9.90,28.91
9.93,19.21
9.97,8.23
10.00,-3.04
10.03,-13.49
10.07,-23.45
10.10,-32.33
10.13,-39.60
10.17,-44.94
10.20,-48.15
10.23,-48.98
10.27,-47.47
10.30,-43.64
10.33,-37.56
10.37,-29.56
10.40,-20.09
10.43,-9.48
10.47,1.70
10.50,12.87
10.53,23.16
10.57,32.24
10.60,39.83
10.63,45.65
10.67,49.68
10.70,51.43
10.73,50.95
10.77,48.09
10.80,42.97
10.83,35.94
10.87,27.26
10.90,17.31
10.93,6.40
10.97,-4.84
11.00,-14.96
11.03,-24.65
11.07,-33.14
11.10,-40.03
11.13,-44.97
11.17,-47.76
11.20,-48.21
11.23,-46.25
11.27,-42.09
11.30,-35.76
11.33,-27.56
11.37,-17.92
11.40,-7.40
11.43,3.75
11.47,14.64
11.50,24.67
11.53,32.35
11.56,39.98
11.59,45.69
11.63,49.29
11.66,50.96
11.69,50.12
11.73,47.10
11.76,42.00
11.79,35.25
11.83,26.83
11.86,16.85
11.89,6.01
11.93,-5.13
11.96,-15.74
11.99,-25.44
12.03,-33.66
12.06,-40.26
12.09,-44.86
12.13,-47.45
12.16,-47.58
12.19,-45.43
12.23,-41.02
12.26,-34.68
12.29,-26.65
12.33,-16.89
12.36,-6.39
12.39,4.62
12.43,15.48
12.46,25.61
12.49,34.06
12.53,41.18
12.56,46.24
12.59,49.47
12.63,50.50
12.66,49.34
12.69,45.75
12.73,40.27
12.76,33.22
12.79,24.41
12.83,14.20
12.86,3.29
12.89,-7.60
12.93,-17.97
12.96,-27.37
12.99,-35.12
13.03,-41.11
13.06,-45.18
13.09,-47.10
13.13,-46.71
13.16,-43.97
13.19,-39.01
13.23,-32.21
13.26,-23.80
13.29,-14.01
13.33,-3.40
13.36,7.62
13.39,18.14
13.43,27.63
13.46,35.69
13.49,42.15
13.53,46.83
13.56,49.41
13.59,49.74
13.63,47.90
13.66,43.80
13.69,37.81
13.73,30.41
13.76,21.28
13.79,11.00
13.83,0.11
13.86,-10.50
13.89,-20.55
13.93,-29.24
13.96,-36.34
13.99,-41.77
14.03,-45.25
14.06,-46.49
14.09,-45.41
14.13,-42.08
14.16,-36.66
14.19,-29.42
14.23,-20.61
14.26,-10.74
14.29,-0.11
14.33,10.68
14.36,20.90
14.39,29.87
14.43,37.49
14.46,43.30
14.49,47.27
14.53,49.29
14.56,49.01
14.59,46.42
14.63,41.72
14.66,35.39
14.69,27.52
14.73,18.11
14.76,7.64
14.79,-3.14
14.83,-13.59
14.86,-23.20
14.89,-31.35
14.93,-37.98
14.96,-42.80
14.99,-45.48
15.03,-45.90
15.06,-44.10
15.09,-40.04
15.13,-34.04
15.16,-26.39
15.19,-17.17
15.23,-6.94
15.26,3.73
15.29,14.20
15.33,23.89
15.36,32.39
15.39,39.32
15.43,44.47
15.46,47.66
15.49,48.84
15.53,47.77
15.56,44.51
15.59,39.36
15.63,32.58
15.66,24.04
15.69,14.33
15.73,3.81
15.76,-6.79
15.79,-16.86
15.83,-25.86
15.86,-33.38
15.89,-39.34
15.93,-43.30
15.96,-45.22
15.99,-44.89
16.03,-42.23
16.06,-37.44
16.09,-30.84
16.13,-22.76
16.16,-13.22
16.19,-2.92
16.23,7.64
16.26,17.84
16.29,27.08
16.33,34.77
16.36,41.04
16.39,45.35
16.43,47.81
16.46,48.13
16.49,46.33
16.53,42.36
16.56,36.52
16.59,29.17
16.63,20.31
16.66,10.21
16.69,-0.38
16.73,-10.67
16.76,-20.28
16.79,-28.70
16.83,-35.40
16.86,-40.54
16.89,-43.71
16.93,-44.69
16.96,-43.39
16.99,-39.93
17.03,-34.43
17.06,-27.36
17.09,-18.63
17.13,-8.91
17.16,1.46
17.19,11.84
17.23,21.53
17.26,30.03
17.29,37.16
17.33,42.58
17.36,46.13
17.39,47.71
17.43,47.18
17.46,44.44
17.49,39.70
17.53,33.30
17.56,25.37
17.59,15.96
17.63,5.64
17.66,-4.76
17.69,-14.64
17.73,-23.74
17.76,-31.35
17.79,-37.41
17.83,-41.61
17.86,-43.90
17.89,-43.87
17.93,-41.64
17.96,-37.38
17.99,-31.08
18.03,-23.40
18.06,-14.25
18.09,-4.43
18.13,6.02
18.16,16.02
18.19,25.33
18.23,32.90
18.26,39.24
18.29,43.86
18.33,46.49
18.36,47.11
18.39,45.55
18.43,41.93
18.46,36.56
18.49,29.47
18.53,20.92
18.56,11.21
18.59,0.90
18.63,-9.15
18.66,-18.53
18.69,-26.92
18.73,-33.76
18.76,-39.00
18.79,-42.23
18.83,-43.40
18.86,-42.40
18.89,-39.32
18.93,-34.16
18.96,-27.32
18.99,-19.01
19.03,-9.46
19.06,0.59
19.09,10.76
19.13,20.34
19.16,28.76
19.19,35.82
19.23,41.18
19.26,44.97
19.29,46.55
19.33,46.21
19.36,43.76
19.39,39.26
19.43,33.02
19.46,25.44
19.49,16.24
19.53,6.37
19.56,-3.81
19.59,-13.53
19.63,-22.37
19.66,-30.00
19.69,-36.04
19.73,-40.27
19.76,-42.57
19.79,-42.70
19.83,-40.63
19.86,-36.57
19.89,-30.64
19.93,-23.12
19.96,-14.18
19.99,-4.51
20.03,5.53
20.06,15.37
20.09,24.47
20.13,32.06
20.16,38.30
20.19,42.76
20.23,45.44
20.26,46.11
20.29,44.67
20.33,41.21
20.36,35.93
20.39,29.04
20.43,20.77
20.46,11.16
20.49,1.20
20.53,-8.68
20.56,-17.83
20.59,-26.07
20.63,-32.84
20.66,-37.94
20.69,-41.11
20.73,-42.25
20.76,-41.20
20.79,-38.03
20.83,-32.96
20.86,-26.30
20.89,-18.07
20.93,-8.84
20.96,1.05
20.99,10.96
21.03,20.32
21.06,28.54
21.09,35.33
21.13,40.56
21.16,44.07
21.19,45.74
21.23,45.22
21.26,42.73
21.29,38.28
21.33,32.13
21.36,24.55
21.39,15.48
21.43,5.81
21.46,-4.14
21.49,-13.55
21.53,-22.08
21.56,-29.43
21.59,-35.32
21.63,-39.35
21.66,-41.41
21.69,-41.38
21.73,-39.24
21.76,-35.03
21.79,-29.15
21.83,-21.74
21.86,-12.97
21.89,-3.38
21.93,6.55
21.96,16.08
21.99,24.82
22.03,32.03
22.06,37.92
22.09,42.21
22.13,44.68
22.16,45.07
22.19,43.55
22.23,40.04
22.26,34.67
22.29,27.65
22.33,19.30
22.36,9.81
22.39,-0.03
22.43,-9.67
22.46,-18.60
22.49,-26.52
22.53,-32.85
22.56,-37.64
22.59,-40.53
22.63,-41.40
22.66,-40.12
22.69,-36.78
22.73,-31.60
22.76,-24.94
22.79,-16.68
22.83,-7.41
22.86,2.35
22.89,12.03
22.93,21.00
22.96,28.79
22.99,35.29
23.03,40.20
23.06,43.40
23.09,44.70
23.13,44.07
23.16,41.33
23.19,36.72
23.23,30.53
23.26,22.67
23.29,13.68
23.33,4.13
23.36,-5.68
23.39,-14.76
23.43,-23.05
23.46,-29.99
23.49,-35.45
23.53,-39.10
23.56,-40.74
23.59,-40.37
23.63,-37.87
23.66,-33.45
23.69,-27.33
23.73,-19.72
23.76,-10.90
23.79,-1.35
23.83,8.43
23.86,17.66
23.89,25.91
23.93,32.59
23.96,38.18
23.99,42.00
24.03,44.12
24.06,44.15
24.09,42.17
24.13,38.39
24.16,32.68
24.19,25.62
24.23,17.01
24.26,7.75
24.29,-1.95
24.33,-11.32
24.36,-19.86
24.39,-27.26
24.43,-33.20
24.46,-37.53
24.49,-39.93
24.53,-40.29
24.56,-38.62
24.59,-34.94
24.63,-29.48
24.66,-22.46
24.69,-14.11
24.73,-4.87
24.76,4.74
24.79,14.17
24.83,22.73
24.86,29.93
24.89,35.96
24.93,40.43
24.96,43.17
24.99,43.95
25.03,42.74
25.06,39.56
25.09,34.60
25.13,28.07
25.16,20.02
25.19,11.01
25.23,1.53
25.26,-7.93
25.29,-16.63
25.33,-24.43
25.36,-30.82
25.39,-35.75
25.43,-38.80
25.46,-39.90
25.49,-39.06
25.53,-36.00
25.56,-31.13
25.59,-24.81
25.63,-17.00
25.66,-8.15
25.69,1.28
25.73,10.76
25.76,19.56
25.79,27.30
25.83,33.49
25.86,38.55
25.89,41.91
25.93,43.32
25.96,42.74
25.99,40.28
26.03,36.00
26.06,29.99
26.09,22.53
26.13,13.79
26.16,4.58
26.19,-4.85
26.23,-13.74
26.26,-21.83
26.29,-28.65
26.33,-33.98
26.36,-37.57
26.39,-39.36
26.43,-39.08
26.46,-36.72
26.49,-32.56
26.53,-26.61
26.56,-19.25
26.59,-10.86
26.63,-1.58
26.66,7.91
26.69,16.84
26.73,24.89
26.76,31.54
26.79,36.84
26.83,40.68
26.86,42.80
26.89,42.81
26.93,41.02
26.96,37.27
26.99,31.70
27.03,24.84
27.06,16.68
27.09,7.63
27.13,-1.68
27.16,-10.80
27.19,-19.14
27.23,-26.30
27.26,-32.10
27.29,-36.19
27.33,-38.52
27.36,-38.87
27.39,-37.17
27.43,-33.58
27.46,-28.20
27.49,-21.34
27.53,-13.20
27.56,-4.30
27.59,5.08
27.63,14.14
27.66,22.43
27.69,29.47
27.73,35.28
27.76,39.46
27.79,42.02
27.83,42.72
27.86,41.42
27.89,38.23
27.93,33.30
27.96,26.96
27.99,19.02
28.03,10.30
28.06,0.99
28.09,-8.07
28.13,-16.62
28.16,-24.08
28.19,-30.19
28.23,-34.86
28.26,-37.68
28.29,-38.56
28.33,-37.45
28.36,-34.41
28.39,-29.50
28.43,-23.09
28.46,-15.44
28.49,-6.69
28.53,2.55
28.56,11.71
28.59,20.18
28.63,27.49
28.66,33.56
28.69,38.19
28.73,41.16
28.76,42.22
28.79,41.48
28.83,38.88
28.86,34.38
28.89,28.43
28.93,21.02
28.96,12.53
28.99,3.47
29.03,-5.71
29.06,-14.32
29.09,-21.96
29.13,-28.45
29.16,-33.43
29.19,-36.69
29.23,-38.13
29.26,-37.49
29.29,-35.05
29.33,-30.65
29.36,-24.68
29.39,-17.36
29.43,-9.03
29.46,-0.02
29.49,9.22
29.53,17.85
29.56,25.44
29.59,31.68
29.63,36.68
29.66,40.07
29.69,41.67
29.73,41.42
29.76,39.16
29.79,35.27
29.83,29.62
29.86,22.83
29.89,14.43
29.93,5.58
29.96,-3.55
29.99,-12.21
30.03,-20.08
30.06,-26.76
30.09,-32.05
30.13,-35.72
30.16,-37.60
30.19,-37.52
30.23,-35.54
30.26,-31.59
30.29,-26.15
30.33,-19.13
30.36,-11.00
30.39,-2.15
30.43,6.78
30.46,15.55
30.49,23.48
30.53,29.93
30.56,35.26
30.59,39.07
30.63,41.02
30.66,41.13
30.69,39.39
30.73,35.74
30.76,30.52
30.79,24.02
30.83,16.12
30.86,7.36
30.89,-1.61
30.93,-10.27
30.96,-18.34
30.99,-25.24
31.03,-30.90
31.06,-34.83
31.09,-37.06
31.13,-37.43
31.16,-35.85
31.19,-32.39
31.23,-27.25
31.26,-20.61
31.29,-12.66
31.33,-4.07
31.36,4.89
31.39,13.66
31.43,21.79
31.46,28.55
31.49,34.00
31.53,38.13
31.56,40.40
31.59,41.01
31.63,39.58
31.66,36.46
31.69,31.57
31.73,25.39
31.76,17.80
31.79,9.31
31.83,0.36
31.86,-8.39
31.89,-16.51
31.93,-23.68
31.96,-29.63
31.99,-33.88
32.03,-36.44
32.06,-37.13
32.09,-36.00
32.13,-32.93
32.16,-28.09
32.19,-21.76
32.23,-14.19
32.26,-5.68
32.29,3.17
32.33,11.98
32.36,20.05
32.39,27.12
32.43,32.86
32.46,37.26
32.49,39.84
32.53,40.75
32.56,39.74
32.59,36.86
32.63,32.30
32.66,26.52
32.69,19.17
32.73,10.76
32.76,1.87
32.79,-6.75
32.83,-15.03
32.86,-22.47
32.89,-28.39
32.93,-32.96
32.96,-35.83
32.99,-36.81
33.03,-35.94
33.06,-33.17
33.09,-28.72
33.13,-22.63
33.16,-15.29
33.19,-7.15
33.23,1.65
33.26,10.47
33.29,18.70
33.33,25.94
33.36,31.85
33.39,36.39
33.43,39.31
33.46,40.43
33.49,39.78
33.53,37.29
33.56,32.86
33.59,27.31
33.63,20.38
33.66,12.22
33.69,3.53
33.73,-5.29
33.76,-13.46
33.79,-20.91
33.83,-27.15
33.86,-31.88
33.89,-35.00
33.93,-36.33
33.96,-35.76
33.99,-33.33
34.03,-29.15
34.06,-23.35
34.09,-16.40
34.13,-8.39
34.16,0.27
34.19,8.96
34.23,17.31
34.26,24.70
34.29,30.64
34.33,35.45
34.36,38.52
34.39,39.93
34.43,39.45
34.46,37.26
34.49,33.22
34.52,27.88
34.56,21.23
34.59,13.31
34.62,4.83
34.66,-3.93
34.69,-12.28
34.72,-19.72
34.76,-26.06
34.79,-31.08
34.82,-34.42
34.86,-36.02
34.89,-35.72
34.92,-33.55
34.96,-29.67
34.99,-24.19
35.02,-17.35
35.06,-9.43
35.09,-0.96
35.12,7.82
35.16,16.09
35.19,23.59
35.22,29.79
35.26,34.61
35.29,38.01
35.32,39.62
35.36,39.33
35.39,37.48
35.42,33.63
35.46,28.56
35.49,21.99
35.52,14.35
35.56,5.99
35.59,-2.68
35.62,-11.04
35.66,-18.59
35.69,-25.06
35.72,-30.18
35.76,-33.77
35.79,-35.60
35.82,-35.54
35.86,-33.62
35.89,-29.95
35.92,-24.63
35.96,-17.94
35.99,-10.30
36.02,-1.87
36.06,6.76
36.09,15.13
36.12,22.58
36.16,29.02
36.19,33.95
36.22,37.41
36.26,39.30
36.29,39.32
36.32,37.47
36.36,33.98
36.39,29.04
36.42,22.84
36.46,15.39
36.49,7.02
36.52,-1.51
36.56,-9.96
36.59,-17.55
36.62,-24.22
36.66,-29.40
36.69,-33.04
36.72,-35.07
36.76,-35.12
36.79,-33.38
36.82,-29.99
36.86,-24.88
36.89,-18.33
36.92,-11.01
36.96,-2.62
36.99,5.88
37.02,14.31
37.06,21.82
37.09,28.24
37.12,33.30
37.16,36.87
37.19,38.78
37.22,39.00
37.26,37.49
37.29,34.11
37.32,29.36
37.36,23.30
37.39,15.92
37.42,7.70
37.46,-0.74
37.49,-8.97
37.52,-16.59
37.56,-23.31
37.59,-28.56
37.62,-32.32
37.66,-34.46
37.69,-34.71
37.72,-33.21
37.76,-29.91
37.79,-25.01
37.82,-18.72
37.86,-11.38
37.89,-3.15
37.92,5.35
37.96,13.59
37.99,21.26
38.02,27.65
38.06,32.71
38.09,36.39
38.12,38.43
38.16,38.83
38.19,37.34
38.22,34.18
38.26,29.49
38.29,23.64
38.32,16.43
38.36,8.45
38.39,-0.08
38.42,-8.28
38.46,-15.95
38.49,-22.59
38.52,-27.84
38.56,-31.78
38.59,-33.95
38.62,-34.32
38.66,-32.94
38.69,-29.72
38.72,-24.85
38.76,-18.78
38.79,-11.69
38.82,-3.56
38.86,4.83
38.89,13.06
38.92,20.56
38.96,27.14
38.99,32.19
39.02,36.00
39.06,38.15
39.09,38.58
39.12,37.23
39.16,34.19
39.19,29.68
39.22,23.94
39.26,16.82
39.29,8.81
39.32,0.46
39.36,-7.68
39.39,-15.28
39.42,-21.93
39.46,-27.30
39.49,-31.19
39.52,-33.53
39.56,-34.08
39.59,-32.81
39.62,-29.75
39.66,-25.15
39.69,-19.08
39.72,-11.98
39.76,-4.12
39.79,4.17
39.82,12.28
39.86,19.77
39.89,26.38
39.92,31.46
39.96,35.23
39.99,37.43
40.02,38.02
40.06,36.78
40.09,33.83
40.12,29.34
40.16,23.72
40.19,16.78
40.22,8.93
40.26,0.67
40.29,-7.47
40.32,-15.00
40.36,-21.58
40.39,-27.04
40.42,-30.87
40.46,-33.24
40.49,-33.84
40.52,-32.64
40.56,-29.73
40.59,-25.29
40.62,-19.34
40.66,-12.37
40.69,-4.62
40.72,3.68
40.76,11.65
40.79,19.19
40.82,25.75
40.86,30.83
40.89,34.70
40.92,36.92
40.96,37.42
40.99,36.34
41.02,33.51
41.06,29.13
41.09,23.64
41.12,16.75
41.16,9.04
41.19,0.84
41.22,-7.10
41.26,-14.71
41.29,-21.18
41.32,-26.59
41.36,-30.54
41.39,-32.86
41.42,-33.53
41.46,-32.36
41.49,-29.49
41.52,-25.05
41.56,-19.32
41.59,-12.33
41.62,-4.66
41.66,3.49
41.69,11.50
41.72,19.05
41.76,25.54
41.79,30.68
41.82,34.53
41.86,36.70
41.89,37.27
41.92,36.15
41.96,33.34
41.99,29.10
42.02,23.61
42.06,16.83
42.09,9.13
42.12,1.01
42.16,-7.00
42.19,-14.39
42.22,-21.01
42.26,-26.28
42.29,-30.21
42.32,-32.53
42.36,-33.17
42.39,-32.03
42.42,-29.27
42.46,-24.82
42.49,-19.19
42.52,-12.30
42.56,-4.71
42.59,3.51
42.62,11.39
42.66,18.80
42.69,25.24
42.72,30.35
42.76,34.15
42.79,36.46
42.82,36.99
42.86,35.92
42.89,33.12
42.92,28.88
42.96,23.42
42.99,16.75
43.02,9.09
43.06,1.04
43.09,-6.84
43.12,-14.16
43.16,-20.66
43.19,-25.96
43.22,-29.84
43.26,-32.11
43.29,-32.73
43.32,-31.61
43.36,-28.84
43.39,-24.33
43.42,-18.70
43.46,-12.01
43.49,-4.37
43.52,3.66
43.56,11.48
43.59,18.85
43.62,25.20
43.66,30.29
43.69,33.92
43.72,36.11
43.76,36.62
43.79,35.53
43.82,32.71
43.86,28.46
43.89,23.03
43.92,16.40
43.96,8.88
43.99,0.90
44.02,-6.77
44.06,-14.15
44.09,-20.60
44.12,-25.86
44.16,-29.69
44.19,-31.95
44.22,-32.56
44.26,-31.41
44.29,-28.64
44.32,-24.33
44.36,-18.68
44.39,-12.00
44.42,-4.33
44.46,3.60
44.49,11.38
44.52,18.64
44.56,25.03
44.59,29.96
44.62,33.62
44.66,35.83
44.69,36.36
44.72,35.26
44.76,32.45
44.79,28.16
44.82,22.77
44.86,16.14
44.89,8.64
44.92,0.74
44.96,-7.02
44.99,-14.23
45.02,-20.67
45.06,-25.78
45.09,-29.55
45.12,-31.70
45.16,-32.23
45.19,-31.09
45.22,-28.25
45.26,-23.88
45.29,-18.09
45.32,-11.43
45.36,-3.91
45.39,4.05
45.42,11.76
45.46,18.98
45.49,25.23
45.52,30.19
45.56,33.65
45.59,35.76
45.62,36.23
45.66,35.02
45.69,32.26
45.72,28.17
45.76,22.68
45.79,15.99
45.82,8.56
45.86,0.69
45.89,-6.96
45.92,-14.14
45.96,-20.41
45.99,-25.39
46.02,-29.09
46.06,-31.25
46.09,-31.72
46.12,-30.43
46.16,-27.53
46.19,-23.07
46.22,-17.34
46.26,-10.59
46.29,-3.14
46.32,4.71
46.36,12.40
46.39,19.42
46.42,25.57
46.46,30.24
46.49,33.76
46.52,35.70
46.56,36.07
46.59,34.68
46.62,31.83
46.66,27.68
46.69,22.14
46.72,15.50
46.76,8.01
46.79,0.21
46.82,-7.46
46.86,-14.54
46.89,-20.65
46.92,-25.64
46.96,-29.11
46.99,-31.07
47.02,-31.42
47.06,-30.09
47.09,-27.10
47.12,-22.61
47.16,-16.89
47.19,-10.14
47.22,-2.66
47.26,5.10
47.29,12.60
47.32,19.58
47.36,25.64
47.39,30.27
47.42,33.61
47.46,35.47
47.49,35.58
47.52,34.22
47.56,31.21
47.59,27.07
47.62,21.57
47.66,14.91
47.69,7.55
47.72,-0.27
47.76,-7.73
47.79,-14.73
47.82,-20.66
47.86,-25.52
47.89,-28.92
47.92,-30.74
47.96,-31.03
47.99,-29.56
48.02,-26.46
48.06,-21.93
48.09,-16.11
48.12,-9.49
48.16,-2.04
48.19,5.59
48.22,12.96
48.26,19.79
48.29,25.80
48.32,30.26
48.36,33.43
48.39,35.08
48.42,35.25
48.46,33.64
48.49,30.64
48.52,26.31
48.56,20.86
48.59,14.11
48.62,6.71
48.66,-1.00
48.69,-8.36
48.72,-15.22
48.76,-21.17
48.79,-25.75
48.82,-29.04
48.86,-30.77
48.89,-30.85
48.92,-29.30
48.96,-26.10
48.99,-21.52
49.02,-15.82
49.06,-9.13
49.09,-1.71
49.12,5.92
49.16,13.28
49.19,19.99
49.22,25.64
49.26,29.99
49.29,33.10
49.32,34.67
49.36,34.59
49.39,32.94
49.42,29.72
49.46,25.25
49.49,19.65
49.52,12.95
49.56,5.59
49.59,-1.96
49.62,-9.32
49.66,-15.88
49.69,-21.65
49.72,-26.10
49.76,-29.15
49.79,-30.60
49.82,-30.48
49.86,-28.79
49.89,-25.56
49.92,-20.87
49.96,-14.99
49.99,-8.29
50.02,-0.99
50.06,6.57
50.09,13.86
50.12,20.39
50.16,26.04
50.19,30.29
50.22,33.07
50.26,34.46
50.29,34.32
50.32,32.47
50.36,29.19
50.39,24.60
50.42,18.94
50.46,12.21
50.49,4.88
50.52,-2.62
50.56,-9.75
50.59,-16.25
50.62,-21.82
50.66,-26.16
50.69,-29.04
50.72,-30.43
50.76,-30.15
50.79,-28.23
50.82,-24.82
50.86,-20.03
50.89,-14.16
50.92,-7.35
50.96,-0.01
50.99,7.54
51.02,14.65
51.06,21.09
51.09,26.50
51.12,30.49
51.16,33.16
51.19,34.29
51.22,33.96
51.26,31.96
51.29,28.63
51.32,23.95
51.36,18.22
51.39,11.44
51.42,4.17
51.46,-3.37
51.49,-10.38
51.52,-16.66
51.56,-22.07
51.59,-26.20
51.62,-28.88
51.66,-30.08
51.69,-29.61
51.72,-27.63
51.76,-24.08
51.79,-19.31
51.82,-13.34
51.86,-6.46
51.89,0.75
51.92,8.17
51.96,15.28
51.99,21.50
52.02,26.67
52.06,30.33
52.09,32.88
52.12,33.92
52.16,33.33
52.19,31.24
52.22,27.64
52.26,22.91
52.29,17.02
52.32,10.17
52.36,2.91
52.39,-4.49
52.42,-11.46
52.46,-17.58
52.49,-22.65
52.52,-26.67
52.56,-29.09
52.59,-30.05
52.62,-29.38
52.66,-27.16
52.69,-23.48
52.72,-18.45
52.76,-12.43
52.79,-5.61
52.82,1.75
52.86,9.12
52.89,15.95
52.92,22.06
52.96,26.93
52.99,30.54
53.02,32.87
53.06,33.61
53.09,32.87
53.12,30.52
53.16,26.89
53.19,22.03
53.22,15.98
53.26,9.28
53.29,1.97
53.32,-5.23
53.36,-12.06
53.39,-17.96
53.42,-22.96
53.46,-26.62
53.49,-28.88
53.52,-29.58
53.56,-28.79
53.59,-26.32
53.62,-22.46
53.66,-17.28
53.69,-11.20
53.72,-4.35
53.76,2.96
53.79,10.15
53.82,16.88
53.86,22.77
53.89,27.53
53.92,30.94
53.96,32.98
53.99,33.54
54.02,32.52
54.06,30.09
54.09,26.32
54.12,21.33
54.16,15.20
54.19,8.38
54.22,1.04
54.26,-6.07
54.29,-12.69
54.32,-18.59
54.36,-23.31
54.39,-26.83
54.42,-28.77
54.46,-29.21
54.49,-28.09
54.52,-25.44
54.56,-21.38
54.59,-16.20
54.62,-9.98
54.66,-2.95
54.69,4.31
54.72,11.42
54.76,17.88
54.79,23.55
54.82,27.96
54.86,31.13
54.89,32.89
54.92,33.23
54.96,32.07
54.99,29.38
55.02,25.46
55.06,20.37
55.09,14.09
55.12,7.24
55.16,0.00
55.19,-7.12
55.22,-13.52
55.26,-19.15
55.29,-23.62
55.32,-26.81
55.36,-28.61
55.39,-28.81
55.42,-27.49
55.46,-24.59
55.49,-20.38
55.52,-15.01
55.56,-8.73
55.59,-1.93
55.62,5.26
55.66,12.39
55.69,18.70
55.72,24.09
55.76,28.27
55.79,31.20
55.82,32.69
55.86,32.72
55.89,31.24
55.92,28.39
55.96,24.23
55.99,18.97
56.02,12.62
56.06,5.71
56.09,-1.51
56.12,-8.44
56.16,-14.75
56.19,-20.16
56.22,-24.40
56.26,-27.36
56.29,-28.78
56.32,-28.66
56.36,-27.06
56.39,-24.04
56.42,-19.62
56.46,-14.21
56.49,-7.93
56.52,-0.94
56.56,6.10
56.59,13.03
56.62,19.27
56.66,24.34
56.69,28.41
56.72,31.10
56.76,32.40
56.79,32.12
56.82,30.36
56.86,27.26
56.89,22.86
56.92,17.35
56.96,10.88
56.99,3.99
57.02,-3.12
57.06,-10.02
57.09,-16.05
57.12,-21.20
57.16,-25.16
57.19,-27.90
57.22,-29.04
57.26,-28.64
57.29,-26.81
57.32,-23.47
57.36,-18.82
57.39,-13.23
57.42,-6.81
57.46,0.15
57.49,7.28
57.52,14.03
57.56,19.97
57.59,24.99
57.62,28.69
57.66,31.10
57.69,32.14
57.72,31.65
57.76,29.77
57.79,26.40
57.82,21.88
57.86,16.24
57.89,9.65
57.92,2.70
57.96,-4.33
57.99,-10.97
58.02,-16.84
58.06,-21.67
58.09,-25.34
58.12,-27.70
58.16,-28.56
58.19,-27.99
58.22,-25.79
58.26,-22.22
58.29,-17.40
58.32,-11.73
58.36,-5.16
58.39,1.81
58.42,8.96
58.46,15.40
58.49,21.08
58.52,25.99
58.56,29.39
58.59,31.46
58.62,32.11
58.66,31.32
58.69,29.00
58.72,25.49
58.76,20.76
58.79,14.94
58.82,8.37
58.86,1.34
58.89,-5.66
58.92,-12.16
58.96,-17.71
58.99,-22.35
59.02,-25.80
59.06,-27.86
59.09,-28.39
59.12,-27.47
59.16,-25.05
59.19,-21.16
59.22,-16.28
59.26,-10.28
59.29,-3.59
59.32,3.36
59.36,10.19
